
 NCe$Z (MAGNETIZATION AND ZEEMAN)    
 AL=  -1.9990	GJ=   0.8571
 FI=   0. TETA=  90.

  X(J)  -525.40002   -60.10000     0.00000     0.00000     0.00000     0.00000   764.40002     0.00000     0.00000
   2.00000000       74.6271973       2.05209637    
   3.00000000       78.6611176       3.56908631    
   4.00000000       85.8848801       5.08754015    
   5.00000000       95.2677155       6.60538530    
   6.00000000       106.025986       8.11888695    
   7.00000000       117.676361       9.62502384    
   8.00000000       129.924988       11.1217718    
   9.00000000       142.588165       12.6078672    
   10.0000000       155.546875       14.0825424    
   11.0000000       168.721313       15.5453558    
   12.0000000       182.056198       16.9960632    
   13.0000000       195.512161       18.4345455    
   14.0000000       209.060501       19.8607788    
   15.0000000       222.679794       21.2747822    
   16.0000000       236.353790       22.6766186    
   17.0000000       250.069916       24.0663776    
   18.0000000       263.818298       25.4441605    
   19.0000000       277.591125       26.8100777    
   20.0000000       291.382111       28.1642513    
   21.0000000       305.186066       29.5068169    
   22.0000000       318.998840       30.8378944    
   23.0000000       332.816895       32.1576271    
   24.0000000       346.637268       33.4661331    
   25.0000000       360.457489       34.7635651    
   26.0000000       374.275208       36.0500488    
   27.0000000       388.088684       37.3257217    
   28.0000000       401.896149       38.5907173    
   29.0000000       415.695801       39.8451805    
   30.0000000       429.486298       41.0892487    
   31.0000000       443.266083       42.3230515    
   32.0000000       457.033691       43.5467339    
   33.0000000       470.787323       44.7604485    
   34.0000000       484.525726       45.9643173    
   35.0000000       498.246948       47.1585007    
   36.0000000       511.949158       48.3431511    
   37.0000000       525.630432       49.5184135    
   38.0000000       539.288513       50.6844292    
   39.0000000       552.921265       51.8413734    
   40.0000000       566.525940       52.9893951    
   41.0000000       580.099854       54.1286583    
   42.0000000       593.640137       55.2593117    
   43.0000000       607.144104       56.3815422    
   44.0000000       620.607666       57.4955025    
   45.0000000       634.027710       58.6013680    
   46.0000000       647.400452       59.6993141    
   47.0000000       660.722351       60.7895050    
   48.0000000       673.988586       61.8721237    
   49.0000000       687.195557       62.9473381    
   50.0000000       700.338440       64.0153275    
   51.0000000       713.413025       65.0762863    
   52.0000000       726.414124       66.1303711    
   53.0000000       739.337708       67.1777573    
   54.0000000       752.177856       68.2186432    
   55.0000000       764.930359       69.2531891    
   56.0000000       777.590027       70.2815781    
   57.0000000       790.151489       71.3039780    
   58.0000000       802.609680       72.3205872    
   59.0000000       814.959351       73.3315506    
   60.0000000       827.195618       74.3370438    
   61.0000000       839.313049       75.3372574    
   62.0000000       851.306763       76.3323517    
   63.0000000       863.171753       77.3224640    
   64.0000000       874.903198       78.3077850    
   65.0000000       886.495667       79.2884903    
   66.0000000       897.944702       80.2647095    
   67.0000000       909.245850       81.2366028    
   68.0000000       920.395020       82.2043304    
   69.0000000       931.386414       83.1680374    
   70.0000000       942.217041       84.1278610    
   71.0000000       952.882385       85.0839844    
   72.0000000       963.378967       86.0364914    
   73.0000000       973.702515       86.9855804    
   74.0000000       983.850342       87.9313354    
   75.0000000       993.818909       88.8739090    
   76.0000000       1003.60468       89.8134308    
   77.0000000       1013.20508       90.7500229    
   78.0000000       1022.61823       91.6838074    
   79.0000000       1031.84094       92.6149063    
   80.0000000       1040.87134       93.5434341    
   81.0000000       1049.70764       94.4694824    
   82.0000000       1058.34827       95.3931961    
   83.0000000       1066.79138       96.3146667    
   84.0000000       1075.03638       97.2340012    
   85.0000000       1083.08167       98.1512833    
   86.0000000       1090.92664       99.0666275    
   87.0000000       1098.57166       99.9801254    
   88.0000000       1106.01465       100.891853    
   89.0000000       1113.25745       101.801926    
   90.0000000       1120.29956       102.710403    
   91.0000000       1127.14050       103.617378    
   92.0000000       1133.78125       104.522942    
   93.0000000       1140.22437       105.427185    
   94.0000000       1146.46777       106.330147    
   95.0000000       1152.51404       107.231926    
   96.0000000       1158.36572       108.132568    
   97.0000000       1164.02173       109.032181    
   98.0000000       1169.48474       109.930801    
   99.0000000       1174.75806       110.828499    
   100.000000       1179.84143       111.725334    
   101.000000       1184.73828       112.621391    
   102.000000       1189.44983       113.516693    
   103.000000       1193.97913       114.411316    
   104.000000       1198.32727       115.305298    
   105.000000       1202.49976       116.198723    
   106.000000       1206.49646       117.091606    
   107.000000       1210.32129       117.984016    
   108.000000       1213.97522       118.876007    
   109.000000       1217.46338       119.767578    
   110.000000       1220.78833       120.658844    
   111.000000       1223.95251       121.549797    
   112.000000       1226.95837       122.440498    
   113.000000       1229.80981       123.330978    
   114.000000       1232.50977       124.221252    
   115.000000       1235.06104       125.111412    
   116.000000       1237.46838       126.001472    
   117.000000       1239.73291       126.891441    
   118.000000       1241.85901       127.781364    
   119.000000       1243.84778       128.671295    
   120.000000       1245.70679       129.561234    
   121.000000       1247.43542       130.451263    
   122.000000       1249.03955       131.341324    
   123.000000       1250.51990       132.231506    
   124.000000       1251.87952       133.121841    
   125.000000       1253.12524       134.012329    
   126.000000       1254.25574       134.902985    
   127.000000       1255.27734       135.793869    
   128.000000       1256.19324       136.684967    
   129.000000       1257.00391       137.576324    
   130.000000       1257.71350       138.467987    
   131.000000       1258.32642       139.359909    
   132.000000       1258.84338       140.252151    
   133.000000       1259.27014       141.144760    
   134.000000       1259.60803       142.037689    
   135.000000       1259.85864       142.931015    
   136.000000       1260.02698       143.824722    
   137.000000       1260.11316       144.718826    
   138.000000       1260.12451       145.613342    
   139.000000       1260.05762       146.508316    
   140.000000       1259.92188       147.403732    
   141.000000       1259.71313       148.299637    
   142.000000       1259.43750       149.195984    
   143.000000       1259.09827       150.092865    
   144.000000       1258.69812       150.990219    
   145.000000       1258.23499       151.888092    
   146.000000       1257.71570       152.786514    
   147.000000       1257.14001       153.685471    
   148.000000       1256.51184       154.584961    
   149.000000       1255.83105       155.485016    
   150.000000       1255.10400       156.385666    
   151.000000       1254.32727       157.286896    
   152.000000       1253.50854       158.188736    
   153.000000       1252.64539       159.091156    
   154.000000       1251.73914       159.994171    
   155.000000       1250.79675       160.897812    
   156.000000       1249.81665       161.802063    
   157.000000       1248.79993       162.706970    
   158.000000       1247.74829       163.612549    
   159.000000       1246.66809       164.518738    
   160.000000       1245.55505       165.425568    
   161.000000       1244.41455       166.333099    
   162.000000       1243.24475       167.241257    
   163.000000       1242.05017       168.150101    
   164.000000       1240.83044       169.059662    
   165.000000       1239.58826       169.969864    
   166.000000       1238.32288       170.880783    
   167.000000       1237.04004       171.792374    
   168.000000       1235.73706       172.704681    
   169.000000       1234.41272       173.617676    
   170.000000       1233.07703       174.531403    
   171.000000       1231.72253       175.445831    
   172.000000       1230.35413       176.360992    
   173.000000       1228.97400       177.276855    
   174.000000       1227.58044       178.193436    
   175.000000       1226.17603       179.110748    
   176.000000       1224.76038       180.028824    
   177.000000       1223.33704       180.947601    
   178.000000       1221.90393       181.867111    
   179.000000       1220.46460       182.787399    
   180.000000       1219.01843       183.708374    
   181.000000       1217.56482       184.630127    
   182.000000       1216.10962       185.552612    
   183.000000       1214.64722       186.475861    
   184.000000       1213.18494       187.399887    
   185.000000       1211.71582       188.324615    
   186.000000       1210.24817       189.250107    
   187.000000       1208.77661       190.176376    
   188.000000       1207.30505       191.103424    
   189.000000       1205.83423       192.031204    
   190.000000       1204.36255       192.959717    
   191.000000       1202.89294       193.889023    
   192.000000       1201.42444       194.819077    
   193.000000       1199.95874       195.749908    
   194.000000       1198.49585       196.681519    
   195.000000       1197.03564       197.613876    
   196.000000       1195.57898       198.546997    
   197.000000       1194.12573       199.480865    
   198.000000       1192.67932       200.415512    
   199.000000       1191.23572       201.350952    
   200.000000       1189.79749       202.287140    
   201.000000       1188.36572       203.224091    
   202.000000       1186.93958       204.161819    
   203.000000       1185.52100       205.100296    
   204.000000       1184.10742       206.039581    
   205.000000       1182.70117       206.979599    
   206.000000       1181.30347       207.920380    
   207.000000       1179.91406       208.861923    
   208.000000       1178.53101       209.804260    
   209.000000       1177.15637       210.747375    
   210.000000       1175.79028       211.691223    
   211.000000       1174.43274       212.635864    
   212.000000       1173.08533       213.581223    
   213.000000       1171.74524       214.527374    
   214.000000       1170.41504       215.474274    
   215.000000       1169.09485       216.421951    
   216.000000       1167.78247       217.370392    
   217.000000       1166.48279       218.319595    
   218.000000       1165.19031       219.269547    
   219.000000       1163.91016       220.220261    
   220.000000       1162.63916       221.171722    
   221.000000       1161.38025       222.123917    
   222.000000       1160.13000       223.076920    
   223.000000       1158.89148       224.030670    
   224.000000       1157.66333       224.985138    
   225.000000       1156.44739       225.940384    
   226.000000       1155.24109       226.896378    
   227.000000       1154.04443       227.853058    
   228.000000       1152.86218       228.810562    
   229.000000       1151.68884       229.768814    
   230.000000       1150.52905       230.727737    
   231.000000       1149.37952       231.687469    
   232.000000       1148.24280       232.647903    
   233.000000       1147.11560       233.609131    
   234.000000       1146.00024       234.571030    
   235.000000       1144.89685       235.533691    
   236.000000       1143.80627       236.497055    
   237.000000       1142.72693       237.461197    
   238.000000       1141.65674       238.426056    
   239.000000       1140.60071       239.391632    
   240.000000       1139.55591       240.357925    
   241.000000       1138.52502       241.324982    
   242.000000       1137.50403       242.292770    
   243.000000       1136.49280       243.261200    
   244.000000       1135.49707       244.230392    
   245.000000       1134.51111       245.200272    
   246.000000       1133.53772       246.170929    
   247.000000       1132.57617       247.142273    
   248.000000       1131.62500       248.114304    
   249.000000       1130.68933       249.087082    
   250.000000       1129.76074       250.060516    
   251.000000       1128.84717       251.034698    
   252.000000       1127.94324       252.009567    
   253.000000       1127.05115       252.985153    
   254.000000       1126.17334       253.961365    
   255.000000       1125.30688       254.938354    
   256.000000       1124.45105       255.915985    
   257.000000       1123.60645       256.894348    
   258.000000       1122.77551       257.873352    
   259.000000       1121.95227       258.853088    
   260.000000       1121.14294       259.833496    
   261.000000       1120.34497       260.814545    
   262.000000       1119.55737       261.796295    
   263.000000       1118.78247       262.778778    
   264.000000       1118.01758       263.761902    
   265.000000       1117.26660       264.745636    
   266.000000       1116.52466       265.730133    
   267.000000       1115.79675       266.715240    
   268.000000       1115.07764       267.700989    
   269.000000       1114.36987       268.687469    
   270.000000       1113.67383       269.674591    
   271.000000       1112.98657       270.662354    
   272.000000       1112.31348       271.650787    
   273.000000       1111.64807       272.639862    
   274.000000       1110.99524       273.629578    
   275.000000       1110.35571       274.619965    
   276.000000       1109.72473       275.610962    
   277.000000       1109.10461       276.602661    
   278.000000       1108.49744       277.594971    
   279.000000       1107.89661       278.587921    
   280.000000       1107.30713       279.581482    
   281.000000       1106.73108       280.575714    
   282.000000       1106.16626       281.570526    
   283.000000       1105.60693       282.565979    
   284.000000       1105.05920       283.562103    
   285.000000       1104.52551       284.558838    
   286.000000       1103.99731       285.556183    
   287.000000       1103.48291       286.554138    
   288.000000       1102.97839       287.552673    
   289.000000       1102.48291       288.551910    
   290.000000       1101.99536       289.551697    
   291.000000       1101.52197       290.552124    
   292.000000       1101.05615       291.553131    
   293.000000       1100.59888       292.554749    
   294.000000       1100.15234       293.556946    
   295.000000       1099.71851       294.559784    
   296.000000       1099.29102       295.563202    
   297.000000       1098.87292       296.567200    
   298.000000       1098.46472       297.571777    
   299.000000       1098.06750       298.576996    
   300.000000       1097.67749       299.582733    
   301.000000       1097.29675       300.589081    
   302.000000       1096.92871       301.596039    
   303.000000       1096.56628       302.603546    
   304.000000       1096.21619       303.611633    
   305.000000       1095.87292       304.620300    
   306.000000       1095.54028       305.629517    
   307.000000       1095.21240       306.639343    
   308.000000       1094.89819       307.649689    
   309.000000       1094.59143       308.660645    
   310.000000       1094.29370       309.672089    
   311.000000       1094.00183       310.684143    
   312.000000       1093.72156       311.696747    
   313.000000       1093.44910       312.709869    
   314.000000       1093.18396       313.723602    
   315.000000       1092.93018       314.737854    
   316.000000       1092.68213       315.752655    
   317.000000       1092.44348       316.767975    
   318.000000       1092.21204       317.783875    
   319.000000       1091.99207       318.800293    
   320.000000       1091.77966       319.817200    
   321.000000       1091.57178       320.834686    
   322.000000       1091.37598       321.852692    
   323.000000       1091.18298       322.871246    
   324.000000       1091.00256       323.890350    
   325.000000       1090.82861       324.909912    
   326.000000       1090.66614       325.930023    
   327.000000       1090.50647       326.950653    
   328.000000       1090.35632       327.971802    
   329.000000       1090.21301       328.993439    
   330.000000       1090.07507       330.015625    
   331.000000       1089.94556       331.038269    
   332.000000       1089.82910       332.061462    
   333.000000       1089.71875       333.085144    
   334.000000       1089.61267       334.109344    
   335.000000       1089.51611       335.134033    
   336.000000       1089.42517       336.159210    
   337.000000       1089.33691       337.184845    
   338.000000       1089.26477       338.211029    
   339.000000       1089.19446       339.237671    
   340.000000       1089.13342       340.264801    
   341.000000       1089.07800       341.292419    
   342.000000       1089.02820       342.320557    
   343.000000       1088.98938       343.349060    
   344.000000       1088.95386       344.378143    
   345.000000       1088.92651       345.407715    
   346.000000       1088.90527       346.437714    
   347.000000       1088.89612       347.468170    
   348.000000       1088.88574       348.499115    
   349.000000       1088.88623       349.530579    
   350.000000       1088.89209       350.562378    
   351.000000       1088.90845       351.594757    
   352.000000       1088.92419       352.627502    
   353.000000       1088.95239       353.660767    
   354.000000       1088.98169       354.694458    
   355.000000       1089.01990       355.728607    
   356.000000       1089.06421       356.763245    
   357.000000       1089.11682       357.798279    
   358.000000       1089.17261       358.833740    
   359.000000       1089.23523       359.869690    
   360.000000       1089.30640       360.906036    
   361.000000       1089.38098       361.942841    
   362.000000       1089.45996       362.980072    
   363.000000       1089.54895       364.017792    
   364.000000       1089.64282       365.055939    
   365.000000       1089.74194       366.094421    
   366.000000       1089.84741       367.133362    
   367.000000       1089.95642       368.172791    
   368.000000       1090.07678       369.212585    
   369.000000       1090.19519       370.252808    
   370.000000       1090.32336       371.293457    
   371.000000       1090.45776       372.334534    
   372.000000       1090.59924       373.375977    
   373.000000       1090.74268       374.417908    
   374.000000       1090.89502       375.460205    
   375.000000       1091.04663       376.502899    
   376.000000       1091.20789       377.545990    
   377.000000       1091.37549       378.589508    
   378.000000       1091.54736       379.633362    
   379.000000       1091.72571       380.677704    
   380.000000       1091.90698       381.722382    
   381.000000       1092.09497       382.767517    
